# Model #, volume (Rsun^3),[Density: Neutron-1,Zr-94,Zr-96,Mg-25,Xe-128,Xe-130],[Massf: Neutron-1,Zr-94,Zr-96,Mg-25,Xe-128,Xe-130]
53621,0.000225658948781,326803030.228,0.000286900208146,2.92949610457e-05,3.52742573945,4.06383918418e-05,9.26735579955e-05,3.06711912785e-19,6.29775414391e-08,6.43876230788e-09,0.000800431425422,8.82015684241e-09,2.03235265028e-08
53622,0.000229898428586,315759210.872,0.000287354839559,2.93462497304e-05,3.52980808133,4.07080842335e-05,9.28012578675e-05,2.96928944466e-19,6.30025458783e-08,6.44321651021e-09,0.000801257007969,8.82075275355e-09,2.03248929365e-08
53623,0.000234025014156,308565725.4,0.000281672498858,2.87705376236e-05,3.45904712136,3.99010838424e-05,9.09483665362e-05,2.9680994557e-19,6.30213493202e-08,6.44709565012e-09,0.000802447964722,8.81880039845e-09,2.03240559674e-08
53624,0.000238075891199,296819271.182,0.000286138345226,2.92303613468e-05,3.50647935361,4.05539477485e-05,9.2373525138e-05,2.92793836764e-19,6.30449143807e-08,6.45120325604e-09,0.000802643604139,8.82127500397e-09,2.03251983205e-08
53625,0.000242076054208,295224939.337,0.000278768603255,2.8481516946e-05,3.41746192041,3.95007862623e-05,8.99790244918e-05,2.95830596616e-19,6.30636942017e-08,6.45502669432e-09,0.000804086474715,8.81848865412e-09,2.03244084003e-08
53626,0.0002460519218,294325413.697,0.000279540707048,2.8564492548e-05,3.42414579695,3.96143053815e-05,9.02110339379e-05,2.95154488611e-19,6.30911868981e-08,6.45956964226e-09,0.00080491964883,8.81948446422e-09,2.03266543243e-08
53627,0.00024997937772,291381022.014,0.000275793234089,2.81856379e-05,3.37665250787,3.90835667579e-05,8.89854062108e-05,2.95836862007e-19,6.31775693382e-08,6.46995347967e-09,0.000806927081835,8.82780099038e-09,2.03484639604e-08
53628,0.000253931188707,283810485.622,0.000274562084299,2.80633916573e-05,3.36094304944,3.89075384983e-05,8.85731841894e-05,2.86613733002e-19,6.31985704064e-08,6.47363836505e-09,0.000807764403876,8.82818063601e-09,2.03489986301e-08
53629,0.000257845189173,277815557.857,0.000275333000693,2.81451635539e-05,3.36741861113,3.90232525818e-05,8.88082982366e-05,2.83270808357e-19,6.32219369523e-08,6.47745345693e-09,0.000808340950235,8.82989514302e-09,2.03505130058e-08
53630,0.000262499077628,276192590.236,0.000272762104739,2.78863490766e-05,3.33477366993,3.8659128855e-05,8.79631059145e-05,2.83656488185e-19,6.32442820107e-08,6.48181807137e-09,0.000809130792223,8.83040898545e-09,2.03500714756e-08
53631,0.000267043854558,272579853.663,0.000274626269273,2.80805955525e-05,3.35374251311,3.89319909155e-05,8.85486600289e-05,2.80692678788e-19,6.32750025259e-08,6.48686451619e-09,0.000809644921581,8.83344451978e-09,2.03526390906e-08
53632,0.000271509917381,254816443.49,0.000271845187089,2.77975244023e-05,3.31452057038,3.85536292067e-05,8.76438430673e-05,2.75830917714e-19,6.3292222914e-08,6.49030818786e-09,0.000809995123674,8.83472486849e-09,2.03514633101e-08
53633,0.000275922694305,253697711.449,0.00026823206893,2.74320263276e-05,3.27047735275,3.80373157442e-05,8.64628283946e-05,2.75536843315e-19,6.33144485906e-08,6.49460913809e-09,0.000811202100555,8.83377807258e-09,2.0350723995e-08
53634,0.000280267252705,256205567.275,0.000266151195676,2.72237144315e-05,3.2441974352,3.77403500436e-05,8.57738367726e-05,2.76640146721e-19,6.33979419357e-08,6.50494354052e-09,0.000813199185683,8.84186350267e-09,2.03701973937e-08
53635,0.000284608326143,252070273.986,0.000267097409781,2.73239838629e-05,3.25261432168,3.78807367043e-05,8.60631088887e-05,2.7130511493e-19,6.34227027421e-08,6.5092792956e-09,0.000814149723848,8.84260396383e-09,2.03704963688e-08
53636,0.000288910879379,252298041.264,0.000263228029353,2.69314908608e-05,3.2050226198,3.73306382383e-05,8.48012899278e-05,2.7265380117e-19,6.344359491e-08,6.51328159558e-09,0.000815426923364,8.84157992802e-09,2.03692209883e-08
53637,0.000296886988442,251534774.209,0.000263150892876,2.69263514544e-05,3.20197917403,3.73244625493e-05,8.47636852381e-05,2.70678383137e-19,6.34403234517e-08,6.51494215759e-09,0.000815480889781,8.84020134853e-09,2.03601273814e-08
53638,0.000301942639622,241087057.226,0.000265274784282,2.71458750052e-05,3.2245530205,3.76337832816e-05,8.54377572831e-05,2.62649301667e-19,6.34641259343e-08,6.51891341823e-09,0.000815547842346,8.84397809529e-09,2.03612370701e-08
53639,0.000306885614827,233701057.455,0.000260284389652,2.66381307027e-05,3.16293264725,3.69262874361e-05,8.38179247156e-05,2.60635597397e-19,6.35007117974e-08,6.52466495338e-09,0.000816981300896,8.84541058609e-09,2.03646847637e-08
53640,0.000311780761615,233533183.791,0.000259345667945,2.65451390126e-05,3.15109773025,3.67919416696e-05,8.35018544788e-05,2.57398492289e-19,6.35240504775e-08,6.52873815537e-09,0.000817814640445,8.84659897972e-09,2.03645749939e-08
53641,0.000316605817483,227607909.564,0.00025609985655,2.62146954066e-05,3.11040453809,3.63340891249e-05,8.24474440808e-05,2.54347491547e-19,6.35426062479e-08,6.53215998932e-09,0.000818524881281,8.84737694938e-09,2.03633436272e-08
53642,0.000321371471338,228693665.76,0.000253639922846,2.59658240596e-05,3.07988471802,3.59849421166e-05,8.16420404276e-05,2.55914126439e-19,6.35662029654e-08,6.53649557628e-09,0.000820017535885,8.84635080077e-09,2.03621367025e-08
53643,0.000326104901899,227258120.986,0.000255907097486,2.61989690545e-05,3.10428578275,3.63155524629e-05,8.23650814478e-05,2.52035813997e-19,6.3589872283e-08,6.53985709144e-09,0.000820038424107,8.85063503103e-09,2.03641892963e-08
53644,0.000331729414648,231222959.702,0.000250729674987,2.56733175016e-05,3.04350126726,3.55719505518e-05,8.06800162381e-05,2.54069916314e-19,6.3617809298e-08,6.54521150663e-09,0.000821778911577,8.84955037762e-09,2.03625088489e-08
53645,0.000337224578204,231165637.34,0.000247140364724,2.53082596568e-05,2.99991841993,3.50616182947e-05,7.95134186833e-05,2.52988577406e-19,6.36446013043e-08,6.54981530157e-09,0.000822917204496,8.85055970681e-09,2.03624366083e-08
53646,0.000342621815247,217807274.721,0.000245961113259,2.51887891064e-05,2.98355849159,3.48997335352e-05,7.91281032038e-05,2.45223965482e-19,6.3666380305e-08,6.55338015445e-09,0.000823299400235,8.85320167324e-09,2.03627420228e-08
53647,0.000347927044856,222799062.527,0.000241195209681,2.47033902505e-05,2.92700127998,3.42182492478e-05,7.75812401813e-05,2.46896721497e-19,6.36944375671e-08,6.55809504489e-09,0.000824851048283,8.85312139024e-09,2.03624521964e-08
53648,0.000353178367366,224895106.464,0.000233625067263,2.39296838204e-05,2.83810330899,3.31349786435e-05,7.51350467556e-05,2.46181562157e-19,6.37120360001e-08,6.56118514136e-09,0.000825982167274,8.85286704996e-09,2.03604555334e-08
53649,0.00035835698544,231165025.71,0.000222183398955,2.27616935908e-05,2.70465853156,3.14935821135e-05,7.14359627902e-05,2.51513898061e-19,6.37371847998e-08,6.56621632665e-09,0.000828834756546,8.8479162092e-09,2.03564431546e-08
53650,0.000363506272453,239954853.706,0.000211214007088,2.16428826364e-05,2.57805830521,2.99153560568e-05,6.78854859495e-05,2.57916015343e-19,6.37613968539e-08,6.57139403269e-09,0.000832068038127,8.84148919761e-09,2.03508451895e-08
53651,0.000369626572492,243368634.688,0.0001993293199,2.0430010039e-05,2.44051750605,2.82069078734e-05,6.40404387275e-05,2.60952564236e-19,6.37910733221e-08,6.57728154906e-09,0.000835026469012,8.83714070567e-09,2.03465112671e-08
53652,0.000375606218129,232284720.692,0.000190247468105,1.95030190833e-05,2.33400891378,2.69051458285e-05,6.11034658745e-05,2.57102953692e-19,6.38146263499e-08,6.58221583547e-09,0.000837367415617,8.83354711349e-09,2.03415046215e-08
53653,0.000381458757182,238485770.083,0.000178882226311,1.83421144121e-05,2.20251446258,2.52722306284e-05,5.7429508238e-05,2.62006143781e-19,6.38409003738e-08,6.58743997521e-09,0.000840451097238,8.82839154307e-09,2.03362592967e-08
53654,0.00038722863727,229730934.378,0.000170701198028,1.75061543453e-05,2.10626158745,2.41013230717e-05,5.47864400305e-05,2.58763491024e-19,6.3863210714e-08,6.5918472852e-09,0.000842696433824,8.82513360441e-09,2.03315184411e-08
53655,0.00039291709928,238125400.17,0.00016015524601,1.6430323697e-05,1.98554304681,2.25814634488e-05,5.13706615134e-05,2.6539897944e-19,6.38925849018e-08,6.59795114478e-09,0.000846687177028,8.81745788454e-09,2.03240081138e-08
53656,0.000398552309847,242983007.122,0.000152419877435,1.56408154413e-05,1.89651331427,2.14687474897e-05,4.88657178642e-05,2.68301281214e-19,6.39179418783e-08,6.60278353437e-09,0.000849537638568,8.81305562003e-09,2.03184610755e-08
53657,0.00040413427706,266820427.619,0.000141744739499,1.45494635385e-05,1.77260546249,1.99375382471e-05,4.54142149501e-05,2.82217616245e-19,6.39471532133e-08,6.60843487913e-09,0.000853443102843,8.80606535521e-09,2.03109516908e-08
53658,0.000410792348022,261693095.464,0.000134681448517,1.38295131278e-05,1.69175183093,1.89202546568e-05,4.31229454738e-05,2.80515094627e-19,6.39779272075e-08,6.61433377088e-09,0.000856512437215,8.80212104411e-09,2.03048606698e-08
53659,0.000417275718694,248332483.191,0.000130308736073,1.33839720844e-05,1.64099699052,1.82924145376e-05,4.17033876135e-05,2.7439136905e-19,6.40055698165e-08,6.6192676979e-09,0.000858745982845,8.80030277165e-09,2.03003057475e-08
53660,0.00042363158308,237213246.55,0.000124155175745,1.27561335368e-05,1.56916994248,1.74099363419e-05,3.97102036847e-05,2.70646843363e-19,6.40337810766e-08,6.62476226825e-09,0.000861872117471,8.79550510958e-09,2.02931271061e-08
53661,0.000429881191602,242311983.18,0.00011672402498,1.19976759257e-05,1.4836141787,1.63416879298e-05,3.73019433626e-05,2.75226957691e-19,6.4066273731e-08,6.63091535258e-09,0.000865805612044,8.78916869525e-09,2.02849496785e-08
53662,0.000436046696218,251867787.692,0.000114230927917,1.17434931538e-05,1.45595875778,1.5980850089e-05,3.64867866304e-05,2.7774024596e-19,6.40929616182e-08,6.63478626835e-09,0.00086771000958,8.78877245483e-09,2.02816117452e-08
53663,0.000442144708568,235411318.24,0.000109753176466,1.12864629803e-05,1.40259365728,1.53422104012e-05,3.50371448187e-05,2.70714187396e-19,6.41199179802e-08,6.63956526813e-09,0.000870227612484,8.78588775563e-09,2.02755457774e-08
53664,0.000448201331677,239702394.029,0.000107411240319,1.10457614314e-05,1.37456775608,1.5010387834e-05,3.42792320222e-05,2.71118542833e-19,6.41442037411e-08,6.64263777661e-09,0.000871699462649,8.78660499046e-09,2.02731464946e-08
53665,0.000455401904518,246164202.987,0.000103049998232,1.06015886967e-05,1.3263801427,1.43779573197e-05,3.28569667506e-05,2.73575090144e-19,6.4179351073e-08,6.64844507927e-09,0.000875062163203,8.78317462703e-09,2.02667716145e-08
53666,0.000462409020613,246937947.492,9.68934433414e-05,9.97634955861e-06,1.25697796986,1.3486884453e-05,3.08494613817e-05,2.75320123293e-19,6.42179014964e-08,6.65595383061e-09,0.000879504309455,8.77621540305e-09,2.0255900418e-08
53667,0.000469266409525,251209904.195,9.38919701484e-05,9.66921044684e-06,1.22160208056,1.30590280341e-05,2.98752063956e-05,2.76838511699e-19,6.42488625908e-08,6.66044260834e-09,0.000881828104086,8.77541011271e-09,2.02513566813e-08
53668,0.000476005037328,262622819.005,9.18266028087e-05,9.45862046517e-06,1.19884751205,1.27601490848e-05,2.91980407145e-05,2.80638300957e-19,6.42797801282e-08,6.66460165038e-09,0.00088398438374,8.77528248425e-09,2.02478155966e-08
53669,0.000482649687169,257216182.251,8.92338487662e-05,9.19205324292e-06,1.16794142251,1.23921134708e-05,2.8360627039e-05,2.76907300296e-19,6.43063911205e-08,6.6679584464e-09,0.000885944951956,8.7749780525e-09,2.02441881269e-08
53670,0.000489232444283,260419929.986,8.54013737041e-05,8.80440670924e-06,1.12593275514,1.18334855253e-05,2.71019955655e-05,2.79027791487e-19,6.43414904941e-08,6.67424010765e-09,0.000889704142256,8.76982134141e-09,2.02344617977e-08
53671,0.000495769040269,258420671.03,8.32291513748e-05,8.58286403911e-06,1.10207057632,1.15186106233e-05,2.63908058197e-05,2.7710629511e-19,6.43717565857e-08,6.67826789537e-09,0.000892132583715,8.76868052436e-09,2.02300198884e-08
53672,0.00050350985453,240072608.771,7.90937774719e-05,8.16257501505e-06,1.05326242311,1.09266876666e-05,2.50454621589e-05,2.69531193691e-19,6.44076019562e-08,6.68468851188e-09,0.000895569616604,8.76473122521e-09,2.02201265379e-08
53673,0.00051109801803,233740913.178,7.59705173786e-05,7.84212627065e-06,1.01732645776,1.04789739626e-05,2.40318664329e-05,2.65375944977e-19,6.44385948719e-08,6.68886142336e-09,0.000898488486968,8.76235337648e-09,2.02132003471e-08
53674,0.000518519380326,234311843.67,7.49238668553e-05,7.73502231866e-06,1.00624711862,1.03268945776e-05,2.36845066328e-05,2.63483990678e-19,6.44690478812e-08,6.69233375406e-09,0.00090040058167,8.7632009195e-09,2.02098540167e-08
53675,0.000525813171312,240007636.418,7.34458671326e-05,7.58431974408e-06,0.99081703353,1.01107329674e-05,2.31946933161e-05,2.64819225801e-19,6.4502481746e-08,6.69630632135e-09,0.000902784382335,8.76306571581e-09,2.02057058418e-08
53676,0.000533003540435,238741005.775,7.21746606523e-05,7.45284671802e-06,0.976084449038,9.9298388494e-06,2.27799696744e-05,2.62312339834e-19,6.45303036124e-08,6.69902849391e-09,0.000904573259075,8.7638606351e-09,2.02024098498e-08
53677,0.000540107923971,238594939.063,7.04662674871e-05,7.27958358307e-06,0.957142414566,9.68248463563e-06,2.2216394788e-05,2.61062449462e-19,6.45618931552e-08,6.70315332416e-09,0.000906983634562,8.76307482322e-09,2.01967799356e-08
53678,0.000547143552678,240958871.143,6.87958610899e-05,7.11109083898e-06,0.939039755121,9.43869996278e-06,2.1661204923e-05,2.61238750805e-19,6.45956704479e-08,6.70768797591e-09,0.000909550628291,8.76203469323e-09,2.01907436484e-08
53679,0.000555515747948,236845123.942,6.64673198095e-05,6.87223661768e-06,0.910559862586,9.11066019995e-06,2.09089706547e-05,2.58033138814e-19,6.46308223421e-08,6.71197549222e-09,0.000911927558696,8.76240971794e-09,2.01861428609e-08
53680,0.000563666046792,214020473.496,6.49950855452e-05,6.71884405122e-06,0.892803282122,8.90269449297e-06,2.04332569783e-05,2.44676361924e-19,6.46541303042e-08,6.71387438255e-09,0.000913789414106,8.76218294387e-09,2.01805035766e-08
53681,0.000571626389675,216986218.604,6.33610640646e-05,6.55337851573e-06,0.875423280947,8.66344421137e-06,1.98887150678e-05,2.45039501004e-19,6.46906683807e-08,6.71839163881e-09,0.000916588027667,8.76116046581e-09,2.01739184957e-08
53682,0.000579427976622,215732139.089,6.2134386725e-05,6.42971209474e-06,0.861750606626,8.48600038415e-06,1.9480367886e-05,2.42915272677e-19,6.47239876159e-08,6.72241517198e-09,0.000918797397485,8.7614445357e-09,2.01687832393e-08
53683,0.000587096933387,205628530.741,6.03408558191e-05,6.24589900035e-06,0.839851790435,8.23237913853e-06,1.88977303205e-05,2.36685234967e-19,6.4751360846e-08,6.7253689708e-09,0.000920898594367,8.76097320848e-09,2.01624386636e-08
53684,0.000594662272028,208923289.15,5.90967711891e-05,6.1219011418e-06,0.827299966921,8.04774543039e-06,1.84761251231e-05,2.37121284872e-19,6.4785684431e-08,6.72978235509e-09,0.000923492358224,8.76006571037e-09,2.01556263894e-08
53685,0.000602129823831,202799713.408,5.78204023348e-05,5.99015322324e-06,0.81104690615,7.86989776936e-06,1.8064389891e-05,2.32779044106e-19,6.48122831008e-08,6.73206111741e-09,0.000925066031308,8.76124701462e-09,2.01521521504e-08
53686,0.000610970988971,207033564.849,5.71816940345e-05,5.92741517752e-06,0.804638066522,7.77556775176e-06,1.78430785979e-05,2.33147842352e-19,6.48486562511e-08,6.7363416645e-09,0.000927105152457,8.762766884e-09,2.01479675377e-08
53687,0.000619557198087,213028181.312,5.68370986132e-05,5.89573970619e-06,0.802262093853,7.72136879994e-06,1.77133932381e-05,2.34490975279e-19,6.48835483973e-08,6.74058892585e-09,0.000929048316533,8.76423381367e-09,2.01436694896e-08
53688,0.000627948466034,175102597.835,5.42276254431e-05,5.62433150034e-06,0.768758210977,7.35672939768e-06,1.68797363583e-05,2.1280456151e-19,6.48970521871e-08,6.74097879713e-09,0.000931168967633,8.76113762206e-09,2.01324188487e-08
53689,0.000636166018882,165312243.149,5.32348929464e-05,5.52398812692e-06,0.757625548386,7.21285603634e-06,1.65479390122e-05,2.06311066708e-19,6.49275082679e-08,6.74422358996e-09,0.000933206655555,8.76134959251e-09,2.01267581771e-08
53690,0.000644273523942,160966066.207,5.23898368736e-05,5.43675636858e-06,0.747096532014,7.09427181641e-06,1.62714314646e-05,2.02736826293e-19,6.49546344731e-08,6.74642373196e-09,0.000934741204389,8.76270300115e-09,2.01229527225e-08
53691,0.000652284534054,156554835.225,5.17196334527e-05,5.36997611647e-06,0.740024037365,6.99561240965e-06,1.60415237974e-05,1.98568992393e-19,6.49812875747e-08,6.74926832243e-09,0.000936565296518,8.76280830406e-09,2.0116645676e-08
53692,0.000660202442366,156250980.407,5.12702604353e-05,5.32429561065e-06,0.735132692859,6.93047466012e-06,1.58870844223e-05,1.96703506714e-19,6.50082074556e-08,6.75148433897e-09,0.000938063139149,8.76418263629e-09,2.01128505723e-08
53693,0.000668041899188,155812297.489,5.08372636249e-05,5.28044833159e-06,0.730410938004,6.8677103351e-06,1.57379540062e-05,1.94899083919e-19,6.5034695935e-08,6.75365410607e-09,0.000939526487933,8.76555991421e-09,2.01091015772e-08
53694,0.00067732245223,147459574.758,4.98385511034e-05,5.17817570733e-06,0.717601015041,6.72841558252e-06,1.54128123496e-05,1.89147516317e-19,6.50652172391e-08,6.75638081895e-09,0.000941191378269,8.76715744369e-09,2.01048900754e-08
53695,0.000686347601842,147315326.455,4.93773651404e-05,5.13286312714e-06,0.712571121478,6.66144645044e-06,1.52527798764e-05,1.86948454742e-19,6.50958146316e-08,6.75940031694e-09,0.000942827833451,8.76879391592e-09,2.01007140614e-08
53696,0.000695150096861,126423793.376,4.8342919913e-05,5.02092715411e-06,0.698776749858,6.51936547355e-06,1.4926304644e-05,1.73361412927e-19,6.51082450993e-08,6.75796590624e-09,0.000944025777116,8.76872512787e-09,2.00948513932e-08
53697,0.000703781297225,116107878.659,4.76492150244e-05,4.9503403276e-06,0.690346501665,6.42135191558e-06,1.46976450578e-05,1.65799495102e-19,6.51297636893e-08,6.75961447946e-09,0.000945502110579,8.76923051673e-09,2.00892309018e-08
53698,0.000712254533531,113455146.332,4.72518870035e-05,4.90996188643e-06,0.685697259584,6.36497852575e-06,1.45630358973e-05,1.62318627347e-19,6.51547362965e-08,6.76136625478e-09,0.000946826815695,8.7708634315e-09,2.00858380225e-08
53699,0.000720596626952,110973502.883,4.68703593862e-05,4.87138736083e-06,0.681228880128,6.31088960181e-06,1.44336728231e-05,1.59200265111e-19,6.51791411235e-08,6.76308317968e-09,0.000948112659732,8.77249907608e-09,2.00825705937e-08
53700,0.000728827118975,104948140.123,4.59412451423e-05,4.7761259781e-06,0.668671988924,6.18346825655e-06,1.41366651738e-05,1.54675377377e-19,6.5202101258e-08,6.76464805054e-09,0.000949327198961,8.77408732755e-09,2.00793539813e-08
53701,0.000736953809755,103778101.369,4.60143293176e-05,4.7851316691e-06,0.670740196359,6.19082839724e-06,1.41478876047e-05,1.51947926469e-19,6.52252929004e-08,6.76633826012e-09,0.000950538535506,8.77570740931e-09,2.00762153657e-08
53702,0.000744977020042,102139718.765,4.5674746997e-05,4.75141546332e-06,0.666754812709,6.14279037827e-06,1.40324502163e-05,1.49176152007e-19,6.52483739606e-08,6.76802710888e-09,0.000951723620085,8.77738134445e-09,2.00733468896e-08
53703,0.000752914141712,100504211.972,4.53455777601e-05,4.71889172257e-06,0.662884137245,6.09627314621e-06,1.39205939687e-05,1.46604175717e-19,6.52710057981e-08,6.76970675229e-09,0.00095287895059,8.77905296613e-09,2.00705928055e-08
53704,0.000762304334256,97811949.1219,4.49648321098e-05,4.68171120829e-06,0.658400483711,6.04246599971e-06,1.37912304599e-05,1.42938043596e-19,6.52975278416e-08,6.77198859825e-09,0.000954221774345,8.78097740092e-09,2.00674325181e-08
53705,0.000771419887666,95889188.9666,4.4603250722e-05,4.64641878165e-06,0.6541257778,5.99146191833e-06,1.36686100793e-05,1.40016378868e-19,6.53228352654e-08,6.77411427549e-09,0.000955498827185,8.78285794915e-09,2.00644808426e-08
