# Model #, volume (Rsun^3),[Density: Neutron-1,Zr-94,Zr-96,Mg-25,Xe-128,Xe-130],[Massf: Neutron-1,Zr-94,Zr-96,Mg-25,Xe-128,Xe-130]
53242,2.45392959784e-05,6.16200886109e-21,0.0294186242583,0.000106523737876,8.24455206964,0.00373039369487,0.00817098957317,8.7218107549e-25,2.80083751991e-06,7.67290315169e-09,0.000445027589831,3.54711973672e-07,7.76893163277e-07
53243,2.45286302476e-05,6.14191413206e-21,0.0294092638602,0.000106461798876,8.23867694645,0.003729177227,0.00816835221741,8.69619745654e-25,2.80085207144e-06,7.67281796417e-09,0.000445027570993,3.54711452553e-07,7.76894744536e-07
53244,2.451877556e-05,6.13278301794e-21,0.0294000790847,0.00010640096309,8.23290935558,0.00372798456435,0.00816576534178,8.67427675787e-25,2.80086575581e-06,7.67273860226e-09,0.000445027564336,3.5471096415e-07,7.76896232363e-07
53245,2.4509644183e-05,6.11296236745e-21,0.0293909264207,0.000106338581095,8.22695274659,0.003726796599,0.00816318763184,8.64948603424e-25,2.80087892566e-06,7.67265511904e-09,0.000445027341517,3.54710494335e-07,7.76897661523e-07
53246,2.4501386071e-05,6.10473176742e-21,0.0293819069074,0.000106278759674,8.2212718721,0.00372562713772,0.00816064906848,8.62884482626e-25,2.80089135927e-06,7.67258309939e-09,0.000445027335172,3.54710053213e-07,7.76899013169e-07
53247,2.44936429345e-05,6.08525877212e-21,0.0293729198709,0.000106219771151,8.21566459848,0.00372446275234,0.00815812068057,8.60442457867e-25,2.80090336332e-06,7.67251462088e-09,0.000445027376244,3.54709629908e-07,7.76900319571e-07
53248,2.44867057381e-05,6.08219230267e-21,0.0293640854177,0.000106161120322,8.21008779916,0.0037233188185,0.00815563575154,8.58643223877e-25,2.80091465698e-06,7.67244860707e-09,0.000445027374028,3.54709231418e-07,7.76901545806e-07
53249,2.4480239397e-05,6.06544103538e-21,0.0293552540287,0.00010610241326,8.20449419765,0.00372217593787,0.00815315233653,8.56336420628e-25,2.80092559115e-06,7.67238482829e-09,0.000445027404987,3.54708848618e-07,7.76902734517e-07
53250,2.44743813047e-05,6.05471784645e-21,0.0293465025838,0.000106043647699,8.19887743955,0.00372104405077,0.00815069192272,8.54243301696e-25,2.80093599622e-06,7.67232589814e-09,0.000445027453024,3.54708486712e-07,7.76903866933e-07
53251,2.44690118723e-05,6.04486967361e-21,0.0293377860566,0.00010598433877,8.19319662418,0.00371991713581,0.00814824159775,8.52275636244e-25,2.80094602029e-06,7.67226280423e-09,0.000445027385797,3.54708138777e-07,7.76904954749e-07
53252,2.44641705538e-05,6.03725942909e-21,0.0293291131256,0.000105925378856,8.1875499076,0.00371879651323,0.00814580420881,8.50386909111e-25,2.80095562747e-06,7.67220064837e-09,0.00044502724866,3.54707807399e-07,7.76905997297e-07
53253,2.44597828491e-05,6.03487938699e-21,0.0293205090558,0.000105867241057,8.18198617531,0.00371768540856,0.00814338688417,8.48827091913e-25,2.80096484904e-06,7.67214001699e-09,0.000445027152099,3.5470749121e-07,7.7690699736e-07
53254,2.44558350655e-05,6.03378233404e-21,0.0293120090596,0.000105810213763,8.17653510343,0.00371658842718,0.00814099959924,8.47255013012e-25,2.80097359887e-06,7.67208776133e-09,0.000445027122633,3.5470719423e-07,7.76907949197e-07
53255,2.44522580979e-05,6.02497946601e-21,0.0293034620917,0.000105752624135,8.17102777054,0.00371548580388,0.00813859948115,8.45414624682e-25,2.80098215064e-06,7.67202657076e-09,0.00044502690002,3.54706904674e-07,7.76908875108e-07
53256,2.44492431339e-05,6.0303064056e-21,0.0292950666898,0.000105695997512,8.16560899283,0.00371440331387,0.00813624250223,8.44202621127e-25,2.80099020035e-06,7.67197500571e-09,0.000445026838667,3.54706635095e-07,7.76909749307e-07
53257,2.4446588002e-05,6.02437120891e-21,0.0292866284841,0.000105638229019,8.16006604887,0.00371331560433,0.00813387360122,8.42456013816e-25,2.80099802786e-06,7.67192000587e-09,0.000445026615657,3.54706373375e-07,7.76910596284e-07
53258,2.44443052344e-05,6.01778948912e-21,0.0290895927096,0.000106333602634,8.2726908754,0.00368856525691,0.0080797262034,8.36633537274e-25,2.78236024664e-06,7.67988769283e-09,0.000449109321471,3.5235524984e-07,7.71764542668e-07
53259,2.44423974687e-05,6.04188551651e-21,0.0292067326616,0.000105785755063,8.18984875878,0.00370323665735,0.00811184022152,8.39112666169e-25,2.79476939759e-06,7.67448206847e-09,0.000446392821059,3.53918682154e-07,7.75188743787e-07
53260,2.44408064418e-05,6.04775581454e-21,0.0291983619493,0.000105729201948,8.18444845422,0.00370215908346,0.00810949190017,8.38011977604e-25,2.79477643548e-06,7.67442091216e-09,0.000446392354172,3.53918452928e-07,7.7518950231e-07
53261,2.44396062709e-05,6.05437918596e-21,0.0291901487495,0.000105672772111,8.17904832341,0.0037011020588,0.00810718780572,8.36940402182e-25,2.79478309721e-06,7.67435668886e-09,0.000446391892747,3.53918238683e-07,7.75190219042e-07
53262,2.44387580678e-05,6.07259534966e-21,0.0291819537293,0.00010561650338,8.17366663801,0.00370004779011,0.00810488925585,8.3654011646e-25,2.79478951422e-06,7.6742909161e-09,0.000446391174114,3.53918035018e-07,7.75190910318e-07
53263,2.44381778034e-05,6.09393625032e-21,0.0291736868203,0.000105560138331,8.16824689427,0.00369898478399,0.00810257115402,8.36260293316e-25,2.79479572251e-06,7.67424766333e-09,0.000446391035436,3.53917837906e-07,7.75191581001e-07
53264,2.44378566651e-05,6.09575744431e-21,0.0291653357476,0.000105504764588,8.16296023701,0.00369791154894,0.00810023043069,8.34905695343e-25,2.79480183109e-06,7.67419939742e-09,0.000446390740707,3.53917647019e-07,7.75192240743e-07
53265,2.44378195285e-05,6.10688835083e-21,0.0291571871885,0.000105451933621,8.1579401811,0.00369686490021,0.00809794733446,8.34086903965e-25,2.794807599e-06,7.67415457077e-09,0.000446390511756,3.53917469636e-07,7.75192865028e-07
53266,2.44381529611e-05,6.12213974981e-21,0.0291494638716,0.000105401166789,8.15309557381,0.00369587319653,0.00809578354998,8.33490008322e-25,2.79481279199e-06,7.6741198431e-09,0.000446390458042,3.5391731107e-07,7.75193427665e-07
53267,2.44387400934e-05,6.13140749786e-21,0.0291419404244,0.00010535192891,8.14840923957,0.00369490749841,0.00809367614521,8.32909068784e-25,2.79481768082e-06,7.67408089506e-09,0.000446390536195,3.53917162914e-07,7.75193953578e-07
53268,2.4439612219e-05,6.14034664767e-21,0.0291346281818,0.000105302384663,8.14365420358,0.00369396897458,0.00809162756464,8.32188271559e-25,2.79482222237e-06,7.67404699797e-09,0.000446390615438,3.53917027814e-07,7.75194444335e-07
53269,2.44407208601e-05,6.14424995509e-21,0.0291272468748,0.000105252025321,8.13880643666,0.00369302180243,0.00808955977554,8.31160894282e-25,2.79482663531e-06,7.674016647e-09,0.000446390666922,3.53916896388e-07,7.75194920019e-07
53270,2.44420453784e-05,6.14702837052e-21,0.0291196954756,0.000105200525991,8.13384692474,0.00369205304187,0.00808744458741,8.30050803831e-25,2.79483102356e-06,7.67398655493e-09,0.000446390725111,3.53916768077e-07,7.7519539412e-07
53271,2.44439896376e-05,6.15065883161e-21,0.0291103293801,0.000105136072232,8.12763422293,0.00369085172132,0.00808482118644,8.28741656048e-25,2.79483627683e-06,7.67394552409e-09,0.000446390893101,3.53916617232e-07,7.75195959709e-07
53272,2.44461666283e-05,6.15361717043e-21,0.0291008242587,0.000105070137373,8.12126499746,0.003689632745,0.00808215889633,8.27313258453e-25,2.794841475e-06,7.6738986566e-09,0.000446390727912,3.53916470481e-07,7.7519651857e-07
53273,2.44486190187e-05,6.17297682163e-21,0.0290914543016,0.000105005765589,8.11504902579,0.00368843157529,0.00807953511143,8.26605553021e-25,2.79484637275e-06,7.67386150804e-09,0.000446390611973,3.53916333335e-07,7.75197046045e-07
53274,2.44512153701e-05,6.189893127e-21,0.0290821966687,0.000104942088782,8.10889911221,0.0036872450875,0.00807694304671,8.2611050777e-25,2.79485105914e-06,7.67382250943e-09,0.00044639062312,3.53916205915e-07,7.75197550896e-07
53275,2.44540530807e-05,6.21194181934e-21,0.0290731772042,0.000104880147892,8.10292308475,0.00368608946524,0.00807441803156,8.25921320059e-25,2.79485542886e-06,7.67378773694e-09,0.000446390749294,3.53916089055e-07,7.75198021504e-07
53276,2.4457031822e-05,6.28374018433e-21,0.029332086302,0.00010577711857,8.17152187947,0.00371890587194,0.00814630909628,8.32902250102e-25,2.82055607892e-06,7.73524145896e-09,0.000450391196446,3.57172351244e-07,7.82331486006e-07
53277,2.44603428556e-05,6.29424618312e-21,0.02932303078,0.000105714699043,8.16549629266,0.00371774612224,0.00814377442722,8.3210765818e-25,2.82056016201e-06,7.73520745691e-09,0.00045039143081,3.57172246383e-07,7.82331924993e-07
53278,2.44639027974e-05,6.30376005162e-21,0.0293138032394,0.000105650676121,8.15930613873,0.00371656448444,0.00814119165236,8.31163183826e-25,2.820564198e-06,7.73517264338e-09,0.000450391553893,3.57172144124e-07,7.82332358053e-07
53279,2.44677064296e-05,6.31465720934e-21,0.0293044398655,0.000105585756807,8.15303010604,0.00371536567953,0.0081385711021,8.30195361809e-25,2.8205681689e-06,7.73513663514e-09,0.000450391522181,3.57172045215e-07,7.82332783693e-07
53280,2.44717230039e-05,6.32996828912e-21,0.0292950345953,0.000105521025205,8.1467834875,0.0037141618156,0.0081359392504,8.29517260022e-25,2.82057203858e-06,7.73509669526e-09,0.000450391541635,3.57171950973e-07,7.8233319643e-07
53281,2.44759157605e-05,6.3577790893e-21,0.0292856735278,0.000105456118973,8.14053032018,0.00371296374963,0.00813331975528,8.29665838706e-25,2.82057579334e-06,7.73504603344e-09,0.000450391980577,3.57171864311e-07,7.82333593904e-07
53282,2.44802741935e-05,6.39063458035e-21,0.0292764025537,0.000105391576351,8.13429219101,0.00371177741102,0.00813072564049,8.29961930156e-25,2.82057934777e-06,7.73500741473e-09,0.000450392026673,3.57171782875e-07,7.8233397398e-07
53283,2.44847860485e-05,6.42555659557e-21,0.0292672323865,0.000105328364973,8.12818302978,0.00371060430532,0.00812816024552,8.30531068646e-25,2.82058270912e-06,7.73497644372e-09,0.000450392015106,3.57171705317e-07,7.82334332615e-07
53284,2.4489450654e-05,6.46231954779e-21,0.0292580943983,0.00010526547201,8.12211022783,0.00370943553448,0.00812560408663,8.3149371923e-25,2.82058595755e-06,7.73494316764e-09,0.000450392474586,3.57171634033e-07,7.82334678092e-07
53285,2.44943329831e-05,6.49324043541e-21,0.0292488487483,0.000105201561731,8.11593368173,0.00370825313963,0.00812301789487,8.31975135575e-25,2.8205891301e-06,7.73491466469e-09,0.000450392880361,3.57171566879e-07,7.82335018335e-07
53286,2.44994730961e-05,6.5124406236e-21,0.0292394189019,0.000105136934114,8.10969566216,0.00370704745638,0.00812038059661,8.3181488283e-25,2.82059226743e-06,7.73488429834e-09,0.000450393261453,3.57171501928e-07,7.82335353564e-07
53287,2.4504756362e-05,6.53321120483e-21,0.0292298767068,0.000105070493971,8.10328199117,0.00370582736334,0.0081177115385,8.31702457455e-25,2.82059541135e-06,7.73483407278e-09,0.000450393790631,3.57171441235e-07,7.8233568444e-07
53288,2.45101025061e-05,6.57766199545e-21,0.0292206039818,0.000105006450978,8.09710384018,0.00370464203827,0.00811511831739,8.32661654779e-25,2.82059831332e-06,7.73479401746e-09,0.000450394308469,3.57171385872e-07,7.82335990885e-07
53289,2.45155383412e-05,6.62039322458e-21,0.0292114477709,0.000104942854371,8.09095604967,0.00370347171997,0.00811255772792,8.33783579984e-25,2.82060107083e-06,7.73475625727e-09,0.000450394580215,3.57171334486e-07,7.82336282868e-07
53290,2.45210946158e-05,6.67488125567e-21,0.0292023874986,0.000104880739687,8.08495950504,0.00370231398297,0.0081100245078,8.35728538953e-25,2.82060366108e-06,7.73472660094e-09,0.00045039475774,3.57171284551e-07,7.82336555383e-07
53291,2.45267953973e-05,6.72613177036e-21,0.0291932800856,0.00010481825318,8.07892318467,0.00370115036276,0.00810747824446,8.37743838578e-25,2.82060619027e-06,7.73469835149e-09,0.000450395374281,3.57171239894e-07,7.82336823314e-07
53292,2.45327574118e-05,6.76218790399e-21,0.0290573537009,0.000105245601606,8.15016674061,0.00368407362689,0.00807010896919,8.33930359331e-25,2.80797426392e-06,7.73986888265e-09,0.000453120146451,3.55578269048e-07,7.78849469655e-07
53293,2.45389351675e-05,6.78953329507e-21,0.0290478640217,0.000105178851277,8.1437007737,0.00368286116587,0.00806745539191,8.34858984248e-25,2.80797676916e-06,7.73983147285e-09,0.00045312165825,3.55578232219e-07,7.78849733046e-07
53294,2.4545304591e-05,6.815657941e-21,0.0290382314957,0.000105110110563,8.13700268684,0.00368163041524,0.00806476163008,8.3570342404e-25,2.80797919515e-06,7.73980445737e-09,0.000453122337493,3.55578193812e-07,7.78849989782e-07
53295,2.45516629935e-05,6.85925481848e-21,0.0290288291655,0.000105043468692,8.13051071858,0.00368042929378,0.00806213259899,8.36908447335e-25,2.80798145244e-06,7.73978383732e-09,0.00045312269536,3.55578156964e-07,7.78850228325e-07
53296,2.45581563567e-05,6.89385601647e-21,0.0290194395107,0.000104977914358,8.12413721043,0.00367923012101,0.00805950772281,8.38121418152e-25,2.80798360838e-06,7.73976508739e-09,0.00045312300691,3.55578123639e-07,7.78850457539e-07
53297,2.45647890045e-05,6.92996920399e-21,0.029009978283,0.000104911653391,8.11769453478,0.00367802189596,0.00805686287297,8.39428715715e-25,2.8079857183e-06,7.73974292459e-09,0.000453123621346,3.55578093941e-07,7.78850681185e-07
53298,2.45716226437e-05,6.96741223202e-21,0.0290003339851,0.000104844448502,8.11116642758,0.0036767904596,0.00805416709719,8.40405708403e-25,2.8079877992e-06,7.73972239086e-09,0.000453124014128,3.55578064993e-07,7.78850902076e-07
53299,2.45786963846e-05,7.00806463546e-21,0.0289904579777,0.000104776020633,8.10451861099,0.00367552962512,0.00805140686015,8.41285992207e-25,2.80798984236e-06,7.73970471864e-09,0.000453124065028,3.55578036138e-07,7.78851119226e-07
53300,2.45859526068e-05,7.05768720694e-21,0.0289805514357,0.000104723713514,8.0998117836,0.00367426780343,0.0080486449978,8.4156572082e-25,2.80799187427e-06,7.73967284593e-09,0.000453124606235,3.5557801265e-07,7.7885133285e-07
53301,2.45932809919e-05,7.11050839746e-21,0.0289705103785,0.000104653730818,8.09302059992,0.00367298607433,0.00804583868379,8.43423164421e-25,2.80799381131e-06,7.73965199083e-09,0.000453125382822,3.55577991314e-07,7.7885153869e-07
53302,2.46007217027e-05,7.14297390631e-21,0.0289603061841,0.000104582227814,8.08609075656,0.00367168357235,0.00804298667698,8.45443275595e-25,2.80799574171e-06,7.73961375674e-09,0.000453127716418,3.55577975471e-07,7.78851735164e-07
53303,2.46084706674e-05,7.25200874592e-21,0.0288248407423,0.00010500489858,8.15671101476,0.00365466535419,0.00800574397126,8.46314456323e-25,2.79547845386e-06,7.74473524606e-09,0.000455827163446,3.53999577219e-07,7.75396151755e-07
53304,2.46161181595e-05,7.2987555041e-21,0.0288143383201,0.00010492891399,8.14926295188,0.0036533246142,0.00800280790555,8.48433587555e-25,2.79548021717e-06,7.74471550454e-09,0.000455828384086,3.53999560649e-07,7.75396335879e-07
53305,2.46240167303e-05,7.35030724256e-21,0.0288034716674,0.000104853598909,8.14193014261,0.0036519380836,0.0079997715874,8.50547431438e-25,2.79548191044e-06,7.74470312247e-09,0.000455828763633,3.53999543437e-07,7.75396516169e-07
53306,2.4632028603e-05,7.45480999556e-21,0.0287302342576,0.000105017306578,8.17237068796,0.00364272512663,0.00797960830621,8.53861347511e-25,2.78926676744e-06,7.74724120769e-09,0.000457171099989,3.53215737069e-07,7.73680608621e-07
53307,2.46401743335e-05,7.64583186601e-21,0.028534752353,0.000105714415922,8.28493262515,0.00361818354364,0.00792590327415,8.58188517198e-25,2.77078706967e-06,7.75469057791e-09,0.000461155187291,3.50885621437e-07,7.68579127629e-07
53308,2.46485005823e-05,7.67771234368e-21,0.0285831329426,0.000105370720374,8.23665775214,0.00362422454908,0.00793911891192,8.61588467011e-25,2.77692111261e-06,7.75221131425e-09,0.000459836769059,3.51658794093e-07,7.70272130299e-07
53309,2.46570349555e-05,7.72891466307e-21,0.0285695706186,0.000105285965278,8.22861436531,0.00362249624716,0.00793533363738,8.6405382606e-25,2.77692264398e-06,7.7521988521e-09,0.000459837480816,3.51658781767e-07,7.70272292737e-07
53310,2.46657106871e-05,7.82508819345e-21,0.0284330908432,0.000105709135676,8.29956893638,0.00360534999541,0.00789781016,8.66221249054e-25,2.76468677261e-06,7.75714715946e-09,0.000462475179366,3.50115900422e-07,7.66894415141e-07
53311,2.46744273118e-05,7.8800027914e-21,0.028415914611,0.000105611724527,8.29050077031,0.00360316317175,0.00789302040284,8.70177161938e-25,2.76468821018e-06,7.75714383347e-09,0.00046247732624,3.50115890847e-07,7.6689456695e-07
53312,2.46833830074e-05,7.99360360256e-21,0.0283939777513,0.000105511274479,8.28183214773,0.0036003744813,0.0078869126003,8.77405589291e-25,2.76468967097e-06,7.75711941158e-09,0.000462480868077,3.5011588769e-07,7.66894718265e-07
53313,2.46924673808e-05,7.24521135207e-21,0.0155832269099,8.83920007339e-05,8.19976011446,0.00199977818642,0.00438371445715,8.072098109e-25,1.55686392675e-06,6.19469811102e-09,0.000461431832699,1.99251162341e-07,4.36697772339e-07
53314,2.46985686617e-05,7.44269543669e-21,0.000743090105498,7.63246946625e-05,8.91555494617,0.000106951937984,0.000237642141167,8.20308584419e-25,4.82767359904e-08,4.88092900809e-09,0.000522788935794,6.82190790089e-09,1.51934484579e-08
53315,2.47077419224e-05,2.75795468924e-20,0.000732941285616,7.56173012855e-05,8.8261238896,0.000105566368039,0.00023466051475,2.03356219486e-24,4.61121057908e-08,4.69879943845e-09,0.000499166813613,6.5154717311e-09,1.45247429053e-08
53316,2.47171789427e-05,2.00385139057e-20,0.000719546851941,7.47524813764e-05,8.71983836499,0.000103736444148,0.000230686992965,1.58268522752e-24,4.39227347591e-08,4.51996342911e-09,0.000475995842054,6.20537056242e-09,1.38464712219e-08
53317,2.47265348256e-05,1.47792626591e-20,0.000700631696805,7.30503432963e-05,8.51329909158,0.00010107908323,0.000224881558238,1.26567184663e-24,4.26754016525e-08,4.41115267648e-09,0.000461849918346,6.03055663303e-09,1.34682784998e-08
53318,2.47360825624e-05,1.2052310642e-20,0.000696107712288,7.26909510079e-05,8.46467707429,0.0001004745245,0.000223614245655,1.09013431763e-24,4.19128257345e-08,4.34621488887e-09,0.000453394125503,5.92589411162e-09,1.32444300251e-08
53319,2.47456634921e-05,1.02559428665e-20,0.000699465967305,7.32065788357e-05,8.52014220513,0.000101017934962,0.000224881445815,9.72839082928e-25,4.17263165444e-08,4.33867178213e-09,0.000452408139204,5.90547207785e-09,1.32057653109e-08
53320,2.47553291914e-05,9.29036780546e-21,0.00069108038615,7.25779911202e-05,8.44035915315,9.98779521681e-05,0.000222433124842,9.14455494721e-25,4.08115904182e-08,4.2629078647e-09,0.000442567905913,5.77936219641e-09,1.29347405441e-08
53321,2.4765000197e-05,8.93934638327e-21,0.00069263148797,7.26924723265e-05,8.44797469543,0.000100123185404,0.000223033208095,8.83749445206e-25,4.06144599506e-08,4.24511645929e-09,0.000440218917633,5.7554540028e-09,1.28881618128e-08
53322,2.47747914757e-05,8.59293841032e-21,0.000682597879286,7.18857920383e-05,8.34783873412,9.87439856037e-05,0.00022004593025,8.61848456552e-25,4.01005596203e-08,4.20451614506e-09,0.00043493322355,5.68693378672e-09,1.27435760698e-08
53323,2.47847130094e-05,8.51450286407e-21,0.000678475221226,7.13989226319e-05,8.28496148483,9.81672658821e-05,0.000218821741902,8.52794525656e-25,3.9951352372e-08,4.1875729712e-09,0.000432684812918,5.66912772971e-09,1.27101989294e-08
53324,2.47947707191e-05,8.60539146455e-21,0.00068162944677,7.16800109102e-05,8.31282602118,9.8642851561e-05,0.000219925309,8.49406284243e-25,4.00711482536e-08,4.19845341894e-09,0.000434064133455,5.69027804036e-09,1.27617080089e-08
53325,2.4806258303e-05,9.01964906137e-21,0.000707038184008,7.40970786251e-05,8.62859607679,0.000102112911548,0.000227278162896,8.89310754908e-25,4.19380131777e-08,4.37108864579e-09,0.000456695820637,5.93478912225e-09,1.32652970684e-08
53326,2.48147791813e-05,8.95977228767e-21,0.000705893420835,7.39233190442e-05,8.60691165578,0.000101944647389,0.000226914917322,8.77888073025e-25,4.1953211402e-08,4.37049836965e-09,0.000456603891004,5.9376577741e-09,1.32729797578e-08
53327,2.48250072016e-05,9.21703799391e-21,0.000731526288656,7.6573715758e-05,8.93201922098,0.000105583501501,0.000234839463691,8.97221333828e-25,4.33876629607e-08,4.51274154158e-09,0.000475188117218,6.13778046082e-09,1.37004841598e-08
